# Linearer Ausdehnungskoeffizient ɑ von Kupfer in Abhängigkeit von der Temperatur
# T[K], ɑ[10⁻⁶ grd⁻¹]
70,7
80,8.5
90,9.75
100,10.7
110,11.5
120,12.1
130,12.65
140,13.15
150,13.6
160,13.9
170,14.25
180,14.5
190,14.75
200,14.95
210,15.2
220,15.4
230,15.6
240,15.75
250,15.9
260,16.1
270,16.25
280,16.35
290,16.5
300,16.65
