#I[A],B[mT]
0.0,6
0.2,23.6
0.4,41.8
0.6,59.6
0.8,80.0
1.0,99.4
1.2,117.8
1.4,138.3
1.6,157.1
1.8,178.0
2.0,198.4
2.2,217.7
2.4,236.1
2.6,254.9
2.8,273.6
3.0,292.0
3.2,307.8
3.4,324.9
3.6,343.0
3.8,361.2
4.0,375.5
4.2,392.5
4.4,406.8
4.6,421.3
4.8,434.8
5.0,448.5
5.2,460.2
5.4,473.2
5.6,484.9
5.8,495.6
6.0,506.3
6.2,514.9
6.4,522.9
6.6,530.7
6.8,538.3
7.0,546.5
7.2,553.3
7.4,559.0
7.6,570.5
7.8,575.8
8.0,575.5
